wavelength,s_bar
390,0.00954729
391,0.0114794
392,0.0137986
393,0.0165746
394,0.0198869
395,0.023825
396,0.0284877
397,0.0339832
398,0.0404274
399,0.0479417
400,0.0566498
401,0.0666757
402,0.0781479
403,0.0911925
404,0.105926
405,0.122451
406,0.140844
407,0.16114
408,0.183325
409,0.207327
410,0.233008
411,0.260183
412,0.288723
413,0.318512
414,0.349431
415,0.381363
416,0.414141
417,0.44735
418,0.480439
419,0.512767
420,0.543618
421,0.572399
422,0.599284
423,0.624786
424,0.649576
425,0.674474
426,0.700186
427,0.72646
428,0.752726
429,0.778333
430,0.802555
431,0.824818
432,0.845422
433,0.864961
434,0.8841
435,0.903573
436,0.923844
437,0.944055
438,0.96292
439,0.979057
440,0.99102
441,0.997765
442,0.999982
443,0.998861
444,0.995628
445,0.991515
446,0.987377
447,0.982619
448,0.976301
449,0.967513
450,0.955393
451,0.939499
452,0.920807
453,0.900592
454,0.88004
455,0.86024
456,0.842031
457,0.825572
458,0.81086
459,0.797902
460,0.786704
461,0.777119
462,0.768365
463,0.759538
464,0.749777
465,0.738268
466,0.724389
467,0.708113
468,0.689572
469,0.668927
470,0.646359
471,0.622112
472,0.596591
473,0.570216
474,0.543373
475,0.516411
476,0.489647
477,0.463406
478,0.437965
479,0.413549
480,0.390333
481,0.368394
482,0.347582
483,0.327724
484,0.308676
485,0.290322
486,0.272626
487,0.255772
488,0.239945
489,0.22528
490,0.211867
491,0.199719
492,0.188674
493,0.178557
494,0.169217
495,0.160526
496,0.152368
497,0.14462
498,0.137173
499,0.129937
500,0.122839
501,0.115834
502,0.108922
503,0.102118
504,0.0954374
505,0.0888965
506,0.0825343
507,0.0764613
508,0.0707769
509,0.0655491
510,0.060821
511,0.0565919
512,0.0527659
513,0.049244
514,0.045947
515,0.0428123
516,0.0398014
517,0.0369227
518,0.0341909
519,0.0316158
520,0.0292033
521,0.0269536
522,0.0248575
523,0.0229047
524,0.0210855
525,0.0193912
526,0.0178145
527,0.0163514
528,0.014998
529,0.0137497
530,0.0126013
531,0.0115466
532,0.0105766
533,0.00968268
534,0.00885746
535,0.00809453
536,0.0073889
537,0.00673799
538,0.00613947
539,0.00559073
540,0.005089
541,0.0046312
542,0.00421366
543,0.00383286
544,0.00348559
545,0.00316893
546,0.00288021
547,0.00261698
548,0.00237701
549,0.00215829
550,0.00195896
551,0.00177737
552,0.00161218
553,0.00146215
554,0.00132606
555,0.00120277
556,0.00109118
557,0.000990135
558,0.000898564
559,0.000815524
560,0.000740174
561,0.000671772
562,0.000609693
563,0.000553372
564,0.000502292
565,0.000455979
566,0.000413997
567,0.00037594
568,0.000341439
569,0.00031016
570,0.0002818
571,0.000256084
572,0.000232764
573,0.000211616
574,0.000192436
575,0.000175039
576,0.000159257
577,0.00014494
578,0.000131948
579,0.000120157
580,0.000109454
581,9.97367e-05
582,9.09125e-05
583,8.28976e-05
584,7.5616e-05
585,6.89991e-05
586,6.29846e-05
587,5.75163e-05
588,5.25432e-05
589,4.80192e-05
590,4.39024e-05
591,4.01551e-05
592,3.67431e-05
593,3.36353e-05
594,3.08037e-05
595,2.82228e-05
596,2.58697e-05
597,2.37235e-05
598,2.17653e-05
599,1.99779e-05
600,1.83459e-05
601,1.68551e-05
602,1.54929e-05
603,1.42476e-05
604,1.31087e-05
605,1.20667e-05
606,1.11131e-05
607,1.02399e-05
608,9.43999e-06
609,8.70695e-06
610,8.03488e-06
611,7.41844e-06
612,6.85279e-06
613,6.33352e-06
614,5.85662e-06
615,5.41843e-06
616,-1.19114e-22
617,-3.30872e-24
618,-1.15805e-23
619,-2.89513e-24
620,0
621,2.32645e-25
622,6.46235e-27
623,-4.84676e-27
624,-7.27014e-27
625,7.06819e-28
626,2.77679e-28
627,-3.78653e-29
628,-1.57772e-30
629,-1.18329e-30
630,1.97215e-31
631,2.95823e-31
632,-4.93038e-32
633,1.54074e-32
634,-5.3926e-33
635,-4.23705e-33
636,-5.29631e-34
637,8.42594e-35
638,-5.41668e-35
639,7.52316e-37
640,1.69271e-36
641,1.88079e-37
642,-9.40395e-38
643,-1.64569e-37
644,-1.91018e-38
645,2.93874e-39
646,-2.66323e-39
647,-2.29589e-41
648,2.86986e-41
649,2.29589e-41
650,3.94606e-42
651,-1.6143e-42
652,-2.69049e-43
653,0
654,-8.40779e-45
655,-3.50325e-45
656,-4.2039e-45
657,-3.94115e-46
658,-1.53267e-46
659,8.21073e-48
660,1.36846e-48
661,3.42114e-48
662,3.42114e-49
663,6.41464e-50
664,-3.20732e-50
665,-4.00915e-51
666,3.34096e-52
667,-1.67048e-51
668,-4.80262e-52
669,9.39644e-53
670,-2.61012e-54
671,-4.56771e-54
672,-1.63133e-54
673,2.44699e-55
674,-1.01958e-56
675,-1.52937e-56
676,-1.14703e-56
677,-1.59309e-57
678,1.55326e-57
679,-1.99136e-59
680,-1.49352e-59
681,1.2446e-60
682,-3.11151e-60
683,7.77877e-61
684,-2.13916e-61
685,-8.26494e-62
686,-2.18778e-62
687,-5.16559e-63
688,-1.44333e-63
689,1.7092e-64
690,-6.6469e-65
691,4.74778e-66
692,4.74778e-66
693,-5.93473e-67
694,-7.78933e-67
695,-1.29822e-67
696,-4.63651e-69
697,4.63651e-69
698,2.31825e-69
699,-1.81114e-70
700,-7.24454e-71
701,4.52784e-72
702,9.05568e-72
703,4.24485e-72
704,-5.6598e-73
705,-3.00677e-73
706,-4.42172e-75
707,1.10543e-74
708,1.65814e-75
709,8.29072e-76
710,6.90893e-77
711,5.1817e-77
712,2.15904e-78
713,7.55665e-78
714,2.42892e-78
715,-2.0241e-79
716,-1.26506e-79
717,-4.21688e-81
718,2.63555e-81
719,1.31777e-81
720,3.29444e-83
721,1.64722e-82
722,4.52985e-83
723,1.44132e-83
724,1.02951e-84
725,1.93033e-85
726,8.04306e-86
727,8.04306e-86
728,-2.41292e-86
729,-8.04306e-87
730,1.25673e-88
731,3.14182e-89
732,7.85455e-89
733,-2.74909e-89
734,0
735,-1.22727e-91
736,9.51137e-91
737,-2.30114e-92
738,-4.41051e-92
739,-8.62927e-93
740,5.99255e-94
741,6.5918e-94
742,1.49814e-94
743,1.49814e-95
744,-1.87267e-96
745,3.27717e-96
746,1.75563e-97
747,-2.04823e-97
748,-1.31672e-97
749,-1.82878e-99
750,-3.20036e-99
751,0
752,-5.14344e-100
753,-1.42873e-100
754,-3.92902e-101
755,0
756,-7.81339e-103
757,-5.02289e-103
758,-8.37149e-104
759,-1.74406e-105
760,-3.05211e-105
761,0
762,-4.90517e-106
763,2.72509e-107
764,1.02191e-107
765,1.8735e-107
766,4.89665e-108
767,1.11771e-108
768,-1.33061e-109
769,2.32857e-110
770,0
771,-8.31633e-112
772,-2.39094e-111
773,-2.59885e-112
774,0
775,3.73585e-113
776,-2.43642e-114
777,-6.09106e-115
778,-3.80691e-115
779,9.51728e-116
780,1.11035e-116
781,-1.58621e-117
782,-1.98277e-117
783,4.95692e-119
784,-6.19615e-119
785,1.85884e-119
786,-6.19615e-120
787,4.06622e-120
788,5.32481e-121
789,1.57324e-121
790,6.05092e-123
791,-2.72292e-122
792,-3.40365e-123
793,-9.45457e-125
794,-2.36364e-125
795,1.77273e-125
796,-2.51137e-125
797,-2.95455e-126
798,1.8466e-127
799,-2.30824e-128
800,1.15412e-128
801,-1.73118e-128
802,-3.60663e-129
803,1.62298e-129
804,2.25415e-130
805,7.88951e-131
806,1.69061e-131
807,4.93094e-132
808,3.87431e-132
809,4.40263e-133
810,-5.50328e-134
811,-2.75164e-134
812,-9.63075e-135
813,4.81537e-135
814,1.37582e-135
815,-4.72938e-136
816,4.83687e-137
817,1.88101e-137
818,-4.03073e-138
819,-3.35894e-139
820,-8.39735e-140
821,-5.24834e-140
822,3.41142e-140
823,-6.56043e-142
824,0
825,2.46016e-142
826,2.05013e-142
827,-1.5376e-143
828,1.79387e-143
829,-1.02507e-143
830,0
