wavelength,z_bar
360,0.0006061
361,0.000680879
362,0.000765146
363,0.000860012
364,0.000966593
365,0.001086
366,0.00122059
367,0.00137273
368,0.00154358
369,0.00173429
370,0.001946
371,0.00217778
372,0.00243581
373,0.00273195
374,0.00307806
375,0.003486
376,0.00397523
377,0.00454088
378,0.00515832
379,0.00580291
380,0.00645
381,0.00708322
382,0.00774549
383,0.00850115
384,0.00941454
385,0.01055
386,0.0119658
387,0.0136559
388,0.0155881
389,0.0177302
390,0.02005
391,0.0225114
392,0.0252029
393,0.0282797
394,0.031897
395,0.03621
396,0.0414377
397,0.0475037
398,0.0541199
399,0.060998
400,0.06785
401,0.0744863
402,0.0813616
403,0.0891536
404,0.0985405
405,0.1102
406,0.124613
407,0.141702
408,0.161303
409,0.183257
410,0.2074
411,0.233692
412,0.262611
413,0.294775
414,0.330798
415,0.3713
416,0.416209
417,0.465464
418,0.519695
419,0.57953
420,0.6456
421,0.718484
422,0.796713
423,0.877846
424,0.959439
425,1.03905
426,1.11537
427,1.1885
428,1.25812
429,1.32393
430,1.3856
431,1.44264
432,1.4948
433,1.54219
434,1.58488
435,1.62296
436,1.6564
437,1.6853
438,1.70987
439,1.73038
440,1.74706
441,1.76004
442,1.76962
443,1.77626
444,1.78043
445,1.7826
446,1.78297
447,1.7817
448,1.7792
449,1.77587
450,1.77211
451,1.76826
452,1.76404
453,1.75894
454,1.75247
455,1.7441
456,1.73356
457,1.72086
458,1.70594
459,1.68874
460,1.6692
461,1.64753
462,1.62341
463,1.59602
464,1.56453
465,1.5281
466,1.48611
467,1.43952
468,1.38988
469,1.33874
470,1.28764
471,1.23742
472,1.18782
473,1.13876
474,1.09015
475,1.0419
476,0.994198
477,0.947347
478,0.901453
479,0.856619
480,0.81295
481,0.770517
482,0.729445
483,0.689914
484,0.652105
485,0.6162
486,0.582329
487,0.550416
488,0.520338
489,0.491967
490,0.46518
491,0.439925
492,0.416184
493,0.393882
494,0.372946
495,0.3533
496,0.334858
497,0.317552
498,0.301337
499,0.286169
500,0.272
501,0.258817
502,0.246484
503,0.234772
504,0.223453
505,0.2123
506,0.201169
507,0.19012
508,0.179225
509,0.168561
510,0.1582
511,0.148138
512,0.138376
513,0.128994
514,0.120075
515,0.1117
516,0.103905
517,0.0966675
518,0.0899827
519,0.0838453
520,0.07825
521,0.073209
522,0.0686782
523,0.0645678
524,0.0607884
525,0.05725
526,0.0539043
527,0.0507466
528,0.0477528
529,0.0448986
530,0.04216
531,0.0395073
532,0.0369356
533,0.0344584
534,0.0320887
535,0.02984
536,0.0277118
537,0.0256944
538,0.0237872
539,0.0219892
540,0.0203
541,0.018718
542,0.0172404
543,0.0158636
544,0.0145846
545,0.0134
546,0.0123072
547,0.0113019
548,0.0103779
549,0.00952931
550,0.00875
551,0.0080352
552,0.0073816
553,0.0067854
554,0.0062428
555,0.00575
556,0.0053036
557,0.0048998
558,0.0045342
559,0.0042024
560,0.0039
561,0.0036232
562,0.0033706
563,0.0031414
564,0.0029348
565,0.00275
566,0.0025852
567,0.0024386
568,0.0023094
569,0.0021968
570,0.0021
571,0.00201773
572,0.0019482
573,0.0018898
574,0.00184093
575,0.0018
576,0.00176627
577,0.0017378
578,0.0017112
579,0.00168307
580,0.00165
581,0.00161013
582,0.0015644
583,0.0015136
584,0.00145853
585,0.0014
586,0.00133667
587,0.00127
588,0.001205
589,0.00114667
590,0.0011
591,0.0010688
592,0.0010494
593,0.0010356
594,0.0010212
595,0.001
596,0.00096864
597,0.00092992
598,0.00088688
599,0.00084256
600,0.0008
601,0.00076096
602,0.00072368
603,0.00068592
604,0.00064544
605,0.0006
606,0.000547867
607,0.0004916
608,0.0004354
609,0.000383467
610,0.00034
611,0.000307253
612,0.00028316
613,0.00026544
614,0.000251813
615,0.00024
616,0.000229547
617,0.00022064
618,0.00021196
619,0.000202187
620,0.00019
621,0.000174213
622,0.00015564
623,0.00013596
624,0.000116853
625,0.0001
626,8.61333e-05
627,7.46e-05
628,6.5e-05
629,5.69333e-05
630,5e-05
631,4.416e-05
632,3.948e-05
633,3.572e-05
634,3.264e-05
635,3e-05
636,2.76533e-05
637,2.556e-05
638,2.364e-05
639,2.18133e-05
640,2e-05
641,1.81333e-05
642,1.62e-05
643,1.42e-05
644,1.21333e-05
645,1e-05
646,7.73333e-06
647,5.4e-06
648,3.2e-06
649,1.33333e-06
650,1.65436e-23
651,0
652,0
653,-1.03398e-25
654,-1.68021e-25
655,1.29247e-26
656,-6.46235e-27
657,-6.6643e-27
658,-7.06819e-28
659,0
660,-4.41762e-29
661,4.73317e-30
662,3.15544e-30
663,-7.88861e-31
664,-5.1769e-31
665,1.10934e-31
666,3.08149e-32
667,5.00742e-33
668,-5.77779e-34
669,4.81482e-34
670,1.20371e-35
671,-1.20371e-35
672,3.00927e-36
673,-1.88079e-37
674,-3.29138e-37
675,2.35099e-38
676,2.05712e-38
677,3.67342e-39
678,-4.04076e-39
679,1.05611e-39
680,1.83671e-40
681,-3.44383e-41
682,-1.43493e-42
683,-7.17465e-43
684,-1.0762e-42
685,4.93257e-43
686,-5.60519e-45
687,2.52234e-44
688,1.4013e-45
689,3.50325e-46
690,3.94115e-46
691,-2.18953e-47
692,-2.73691e-47
693,1.5053e-47
694,2.05268e-48
695,-2.9935e-49
696,-2.88659e-49
697,-4.27642e-50
698,0
699,-1.16933e-51
700,-1.00229e-51
701,-4.17619e-53
702,0
703,-1.30506e-54
704,3.26265e-54
705,-1.71289e-54
706,4.07832e-56
707,6.62726e-56
708,2.67639e-56
709,1.27447e-57
710,6.37237e-58
711,4.381e-58
712,4.97841e-59
713,4.72949e-59
714,0
715,-1.55575e-61
716,1.16682e-61
717,2.91704e-62
718,2.43087e-63
719,1.33698e-62
720,0
721,1.51929e-64
722,3.03858e-64
723,9.02079e-65
724,-2.01781e-65
725,8.90209e-67
726,1.4095e-66
727,2.59644e-67
728,-1.0664e-67
729,-1.97052e-68
730,0
731,-1.44891e-70
732,-3.62227e-71
733,-2.7167e-71
734,6.79176e-72
735,0
736,0
737,3.89111e-73
738,3.53737e-74
739,1.76869e-74
740,2.21086e-75
741,4.42172e-75
742,3.45447e-76
743,1.72723e-77
744,-8.63617e-78
745,-1.51133e-77
746,4.85784e-78
747,-1.3494e-78
748,0
749,-3.3735e-80
750,-1.05422e-80
751,5.2711e-81
752,1.71311e-81
753,2.96499e-82
754,-4.11805e-83
755,4.11805e-83
756,1.95607e-83
757,-1.28689e-85
758,0
759,-6.43445e-86
760,6.03229e-86
761,-3.01615e-87
762,-4.77557e-87
763,3.14182e-88
764,-3.14182e-89
765,1.57091e-89
766,-5.89091e-90
767,-1.47273e-90
768,-6.13637e-91
769,1.84091e-91
770,3.06818e-92
771,-1.53409e-92
772,-3.83523e-93
773,3.59553e-94
774,2.69665e-94
775,1.49814e-95
776,-2.2472e-95
777,-3.74534e-96
778,2.34084e-96
779,5.8521e-98
780,-4.38907e-98
781,-3.2918e-98
782,0
783,-1.14299e-99
784,6.28643e-100
785,5.71494e-101
786,-7.50085e-101
787,-1.51803e-101
788,0
789,3.3486e-103
790,1.1162e-103
791,-2.09287e-104
792,-8.7203e-105
793,0
794,3.27011e-106
795,5.7227e-106
796,-8.85656e-107
797,6.81274e-108
798,-2.98057e-108
799,6.38694e-109
800,-3.19347e-109
801,-1.59673e-109
802,3.65918e-110
803,-5.82143e-111
804,-4.15816e-111
805,5.1977e-113
806,-1.55931e-112
807,4.54799e-113
808,-8.12141e-115
809,-4.06071e-115
810,-1.11669e-114
811,2.53794e-116
812,0
813,-4.75864e-117
814,2.37932e-117
815,-2.28018e-117
816,0
817,7.43538e-119
818,-1.23923e-119
819,-3.87259e-121
820,-3.87259e-121
821,-4.84074e-122
822,-9.68148e-122
823,-1.21018e-122
824,-4.53819e-123
825,3.78183e-124
826,7.09093e-124
827,4.49092e-124
828,1.77273e-124
829,-4.72729e-125
830,0
